#    s        x        y     Ue/Vinf    Dstar     Theta      Cf
   0.00000  1.00000  0.00000  0.84941  0.004622  0.002319  0.000654
   0.00477  0.99542  0.00132  0.86316  0.004128  0.002174  0.000808
   0.01250  0.98810  0.00384  0.89789  0.003210  0.001866  0.001233
   0.02095  0.98013  0.00662  0.94153  0.002465  0.001562  0.001798
   0.02994  0.97157  0.00937  0.98181  0.001993  0.001338  0.002349
   0.03954  0.96234  0.01199  1.00540  0.001773  0.001221  0.002675
   0.04997  0.95222  0.01457  1.01646  0.001674  0.001162  0.002814
   0.06129  0.94122  0.01722  1.02513  0.001597  0.001113  0.002919
   0.07339  0.92944  0.01995  1.03266  0.001530  0.001068  0.003007
   0.08610  0.91703  0.02275  1.03973  0.001467  0.001026  0.003088
   0.09927  0.90418  0.02559  1.04670  0.001405  0.000984  0.003170
   0.11275  0.89101  0.02846  1.05375  0.001343  0.000942  0.003255
   0.12642  0.87764  0.03134  1.06094  0.001282  0.000901  0.003345
   0.14022  0.86415  0.03422  1.06827  0.001222  0.000859  0.003442
   0.15409  0.85058  0.03709  1.07565  0.001162  0.000818  0.003544
   0.16800  0.83697  0.03995  1.08328  0.001102  0.000778  0.003655
   0.18191  0.82334  0.04279  1.09099  0.001042  0.000737  0.003775
   0.19582  0.80972  0.04560  1.09883  0.000984  0.000698  0.003903
   0.20972  0.79611  0.04838  1.10680  0.000926  0.000658  0.004040
   0.22359  0.78251  0.05113  1.11483  0.000869  0.000619  0.004184
   0.23743  0.76894  0.05385  1.12295  0.000814  0.000581  0.004331
   0.25122  0.75541  0.05652  1.13113  0.000761  0.000543  0.004472
   0.26498  0.74191  0.05914  1.13904  0.000712  0.000507  0.004580
   0.27868  0.72845  0.06172  1.14691  0.000669  0.000471  0.004616
   0.29233  0.71503  0.06424  1.15426  0.000639  0.000438  0.004471
   0.30592  0.70167  0.06670  1.16131  0.000632  0.000407  0.003951
   0.31944  0.68836  0.06908  1.16890  0.000679  0.000381  0.002762
   0.33289  0.67511  0.07140  1.18642  0.000845  0.000351  0.000985
   0.34625  0.66194  0.07363  1.22385  0.001112  0.000298  0.000020
   0.35951  0.64885  0.07577  1.22720  0.001121  0.000293  0.000002
   0.37268  0.63584  0.07781  1.23116  0.001051  0.000288  0.000039
   0.38570  0.62296  0.07974  1.23615  0.000948  0.000281  0.000126
   0.39858  0.61021  0.08154  1.24220  0.000852  0.000273  0.000242
   0.41135  0.59754  0.08319  1.24831  0.000781  0.000265  0.000354
   0.42410  0.58489  0.08470  1.25355  0.000732  0.000259  0.000445
   0.43684  0.57222  0.08608  1.25786  0.000696  0.000252  0.000518
   0.44961  0.55952  0.08734  1.26145  0.000667  0.000247  0.000582
   0.46240  0.54678  0.08848  1.26438  0.000643  0.000242  0.000637
   0.47521  0.53400  0.08950  1.26692  0.000621  0.000237  0.000693
   0.48804  0.52120  0.09040  1.26887  0.000601  0.000232  0.000742
   0.50090  0.50837  0.09119  1.27019  0.000585  0.000228  0.000785
   0.51378  0.49551  0.09186  1.27075  0.000573  0.000224  0.000814
   0.52671  0.48259  0.09241  1.27077  0.000563  0.000221  0.000834
   0.53970  0.46961  0.09286  1.27047  0.000555  0.000218  0.000846
   0.55272  0.45659  0.09321  1.27016  0.000547  0.000215  0.000860
   0.56578  0.44353  0.09346  1.26986  0.000538  0.000212  0.000877
   0.57887  0.43045  0.09362  1.26939  0.000530  0.000208  0.000889
   0.59197  0.41735  0.09367  1.26904  0.000520  0.000205  0.000907
   0.60508  0.40424  0.09364  1.26844  0.000513  0.000202  0.000918
   0.61820  0.39112  0.09350  1.26811  0.000503  0.000198  0.000940
   0.63132  0.37800  0.09328  1.26745  0.000494  0.000195  0.000953
   0.64444  0.36488  0.09296  1.26694  0.000485  0.000191  0.000973
   0.65756  0.35177  0.09254  1.26632  0.000476  0.000188  0.000992
   0.67066  0.33868  0.09203  1.26567  0.000467  0.000184  0.001011
   0.68375  0.32560  0.09143  1.26501  0.000457  0.000180  0.001033
   0.69683  0.31255  0.09073  1.26429  0.000447  0.000176  0.001056
   0.70988  0.29952  0.08993  1.26358  0.000437  0.000172  0.001083
   0.72290  0.28653  0.08903  1.26260  0.000427  0.000169  0.001103
   0.73589  0.27357  0.08803  1.26186  0.000416  0.000164  0.001135
   0.74885  0.26067  0.08693  1.26087  0.000406  0.000160  0.001162
   0.76176  0.24781  0.08572  1.25985  0.000395  0.000156  0.001193
   0.77462  0.23502  0.08441  1.25883  0.000384  0.000152  0.001230
   0.78741  0.22230  0.08299  1.25756  0.000373  0.000147  0.001262
   0.80014  0.20967  0.08146  1.25640  0.000361  0.000143  0.001305
   0.81278  0.19713  0.07982  1.25501  0.000350  0.000138  0.001347
   0.82533  0.18471  0.07806  1.25362  0.000337  0.000133  0.001399
   0.83775  0.17243  0.07618  1.25193  0.000325  0.000129  0.001447
   0.85003  0.16032  0.07418  1.25031  0.000312  0.000124  0.001512
   0.86213  0.14841  0.07206  1.24830  0.000299  0.000118  0.001575
   0.87401  0.13674  0.06983  1.24612  0.000286  0.000113  0.001642
   0.88562  0.12536  0.06748  1.24394  0.000272  0.000108  0.001731
   0.89691  0.11435  0.06503  1.24145  0.000257  0.000102  0.001843
   0.90779  0.10376  0.06248  1.23837  0.000241  0.000097  0.001989
   0.91822  0.09368  0.05984  1.23373  0.000227  0.000091  0.002115
   0.92814  0.08414  0.05713  1.22845  0.000213  0.000086  0.002284
   0.93746  0.07522  0.05438  1.22163  0.000198  0.000080  0.002481
   0.94616  0.06698  0.05161  1.21289  0.000183  0.000075  0.002746
   0.95422  0.05941  0.04885  1.20026  0.000173  0.000071  0.002878
   0.96162  0.05253  0.04612  1.18734  0.000162  0.000066  0.003051
   0.96838  0.04632  0.04346  1.17350  0.000150  0.000062  0.003290
   0.97451  0.04075  0.04088  1.15736  0.000139  0.000058  0.003573
   0.98008  0.03578  0.03837  1.13783  0.000129  0.000054  0.003903
   0.98515  0.03133  0.03595  1.11398  0.000122  0.000051  0.003980
   0.98975  0.02736  0.03361  1.09092  0.000114  0.000048  0.004229
   0.99396  0.02381  0.03137  1.06514  0.000106  0.000045  0.004464
   0.99780  0.02064  0.02919  1.03661  0.000099  0.000042  0.004715
   1.00133  0.01780  0.02709  1.00452  0.000092  0.000039  0.004967
   1.00459  0.01526  0.02505  0.96840  0.000086  0.000037  0.005151
   1.00762  0.01298  0.02306  0.92945  0.000081  0.000035  0.005221
   1.01043  0.01095  0.02111  0.88697  0.000074  0.000032  0.005657
   1.01306  0.00915  0.01920  0.83400  0.000070  0.000030  0.005714
   1.01553  0.00755  0.01732  0.77525  0.000066  0.000029  0.005714
   1.01786  0.00614  0.01547  0.70975  0.000062  0.000027  0.005606
   1.02006  0.00489  0.01365  0.63897  0.000060  0.000026  0.005250
   1.02215  0.00380  0.01187  0.56475  0.000057  0.000025  0.004928
   1.02413  0.00285  0.01012  0.48752  0.000054  0.000024  0.004347
   1.02603  0.00204  0.00842  0.40322  0.000050  0.000023  0.004063
   1.02783  0.00136  0.00674  0.30934  0.000049  0.000022  0.003101
   1.02956  0.00081  0.00510  0.21231  0.000045  0.000020  0.002356
   1.03122  0.00040  0.00349  0.09819  0.000042  0.000019  0.001184
   1.03282  0.00013  0.00192 -0.02244  0.000042  0.000019  0.000270
   1.03435  0.00001  0.00039 -0.15379  0.000038  0.000017  0.002054
   1.03586  0.00003 -0.00111 -0.30034  0.000037  0.000016  0.004163
   1.03737  0.00021 -0.00262 -0.47114  0.000034  0.000015  0.007183
   1.03892  0.00063 -0.00411 -0.65612  0.000034  0.000015  0.009807
   1.04052  0.00135 -0.00554 -0.81148  0.000037  0.000016  0.010648
   1.04216  0.00235 -0.00684 -0.90011  0.000046  0.000019  0.008706
   1.04388  0.00359 -0.00803 -0.92765  0.000060  0.000024  0.006008
   1.04570  0.00500 -0.00917 -0.95796  0.000063  0.000027  0.006720
   1.04760  0.00656 -0.01028 -0.99045  0.000069  0.000029  0.006312
   1.04962  0.00827 -0.01134 -1.01155  0.000078  0.000032  0.005420
   1.05178  0.01016 -0.01237 -1.02530  0.000087  0.000036  0.004785
   1.05408  0.01223 -0.01339 -1.03553  0.000096  0.000039  0.004328
   1.05657  0.01450 -0.01440 -1.04317  0.000105  0.000042  0.003922
   1.05925  0.01699 -0.01542 -1.05019  0.000113  0.000046  0.003660
   1.06217  0.01972 -0.01645 -1.05695  0.000121  0.000049  0.003442
   1.06537  0.02274 -0.01749 -1.06323  0.000130  0.000052  0.003229
   1.06888  0.02609 -0.01855 -1.06766  0.000140  0.000056  0.002944
   1.07278  0.02983 -0.01965 -1.07107  0.000151  0.000060  0.002708
   1.07713  0.03404 -0.02077 -1.07326  0.000163  0.000064  0.002473
   1.08202  0.03878 -0.02194 -1.07530  0.000174  0.000069  0.002304
   1.08753  0.04416 -0.02315 -1.07656  0.000188  0.000074  0.002121
   1.09377  0.05027 -0.02441 -1.07762  0.000201  0.000079  0.001972
   1.10084  0.05722 -0.02572 -1.07813  0.000216  0.000084  0.001820
   1.10882  0.06508 -0.02707 -1.07819  0.000232  0.000090  0.001681
   1.11774  0.07390 -0.02844 -1.07764  0.000249  0.000097  0.001546
   1.12759  0.08365 -0.02981 -1.07679  0.000267  0.000103  0.001430
   1.13829  0.09427 -0.03116 -1.07537  0.000286  0.000110  0.001316
   1.14971  0.10561 -0.03248 -1.07480  0.000302  0.000117  0.001259
   1.16168  0.11751 -0.03374 -1.07412  0.000320  0.000124  0.001191
   1.17408  0.12985 -0.03493 -1.07342  0.000337  0.000130  0.001128
   1.18680  0.14252 -0.03605 -1.07269  0.000354  0.000137  0.001071
   1.19975  0.15543 -0.03709 -1.07203  0.000370  0.000143  0.001023
   1.21289  0.16854 -0.03805 -1.07122  0.000387  0.000149  0.000974
   1.22617  0.18179 -0.03895 -1.07069  0.000402  0.000155  0.000940
   1.23956  0.19515 -0.03979 -1.07026  0.000416  0.000161  0.000910
   1.25304  0.20861 -0.04057 -1.06983  0.000430  0.000167  0.000880
   1.26660  0.22215 -0.04130 -1.06994  0.000442  0.000172  0.000867
   1.28020  0.23574 -0.04197 -1.06996  0.000454  0.000177  0.000846
   1.29385  0.24937 -0.04260 -1.07033  0.000465  0.000181  0.000834
   1.30752  0.26303 -0.04318 -1.07109  0.000474  0.000186  0.000830
   1.32121  0.27671 -0.04372 -1.07197  0.000483  0.000190  0.000823
   1.33490  0.29039 -0.04421 -1.07317  0.000491  0.000194  0.000821
   1.34859  0.30407 -0.04466 -1.07449  0.000499  0.000198  0.000818
   1.36226  0.31774 -0.04506 -1.07611  0.000505  0.000201  0.000819
   1.37592  0.33139 -0.04541 -1.07776  0.000512  0.000205  0.000816
   1.38954  0.34501 -0.04571 -1.07975  0.000517  0.000208  0.000820
   1.40314  0.35860 -0.04596 -1.08176  0.000523  0.000211  0.000820
   1.41669  0.37215 -0.04615 -1.08392  0.000528  0.000214  0.000821
   1.43019  0.38565 -0.04628 -1.08620  0.000533  0.000216  0.000823
   1.44363  0.39910 -0.04635 -1.08853  0.000538  0.000219  0.000824
   1.45702  0.41248 -0.04635 -1.09092  0.000542  0.000221  0.000824
   1.47032  0.42578 -0.04627 -1.09335  0.000547  0.000224  0.000825
   1.48353  0.43899 -0.04612 -1.09590  0.000550  0.000226  0.000827
   1.49664  0.45209 -0.04588 -1.09834  0.000555  0.000228  0.000826
   1.50962  0.46507 -0.04554 -1.10063  0.000560  0.000231  0.000821
   1.52245  0.47790 -0.04511 -1.10313  0.000564  0.000233  0.000822
   1.53510  0.49054 -0.04456 -1.10490  0.000571  0.000235  0.000808
   1.54760  0.50301 -0.04387 -1.10495  0.000588  0.000239  0.000762
   1.56001  0.51539 -0.04302 -1.10254  0.000619  0.000245  0.000673
   1.57238  0.52773 -0.04201 -1.09801  0.000665  0.000253  0.000556
   1.58476  0.54005 -0.04084 -1.09147  0.000733  0.000263  0.000410
   1.59722  0.55244 -0.03948 -1.08330  0.000844  0.000274  0.000229
   1.60988  0.56500 -0.03795 -1.07631  0.001006  0.000285  0.000062
   1.62276  0.57777 -0.03627 -1.07197  0.001191  0.000291 -0.000035
   1.63582  0.59071 -0.03447 -1.06865  0.001327  0.000297 -0.000063
   1.64901  0.60376 -0.03256 -1.06551  0.001347  0.000302 -0.000061
   1.66239  0.61698 -0.03053 -1.01297  0.000971  0.000398  0.000692
   1.67599  0.63042 -0.02841 -0.99181  0.000782  0.000443  0.002059
   1.68980  0.64405 -0.02622 -0.98025  0.000740  0.000480  0.002871
   1.70372  0.65779 -0.02400 -0.96932  0.000760  0.000522  0.003170
   1.71765  0.67155 -0.02179 -0.95815  0.000808  0.000568  0.003209
   1.73152  0.68525 -0.01960 -0.94705  0.000868  0.000616  0.003137
   1.74531  0.69887 -0.01746 -0.93637  0.000935  0.000664  0.003025
   1.75901  0.71241 -0.01537 -0.92591  0.001006  0.000714  0.002899
   1.77262  0.72587 -0.01335 -0.91602  0.001078  0.000764  0.002776
   1.78615  0.73925 -0.01139 -0.90642  0.001153  0.000814  0.002657
   1.79959  0.75256 -0.00951 -0.89736  0.001229  0.000865  0.002548
   1.81294  0.76579 -0.00772 -0.88863  0.001305  0.000915  0.002447
   1.82621  0.77895 -0.00601 -0.88032  0.001381  0.000966  0.002355
   1.83940  0.79204 -0.00440 -0.87236  0.001458  0.001017  0.002270
   1.85251  0.80506 -0.00289 -0.86478  0.001534  0.001067  0.002193
   1.86552  0.81800 -0.00149 -0.85764  0.001609  0.001118  0.002124
   1.87845  0.83086 -0.00021 -0.85069  0.001685  0.001168  0.002059
   1.89128  0.84364  0.00096 -0.84418  0.001760  0.001218  0.002001
   1.90400  0.85632  0.00200 -0.83807  0.001833  0.001267  0.001950
   1.91660  0.86889  0.00290 -0.83228  0.001904  0.001315  0.001903
   1.92906  0.88132  0.00366 -0.82688  0.001974  0.001362  0.001861
   1.94135  0.89360  0.00427 -0.82182  0.002041  0.001408  0.001823
   1.95343  0.90567  0.00473 -0.81722  0.002104  0.001452  0.001791
   1.96527  0.91750  0.00502 -0.81327  0.002162  0.001492  0.001767
   1.97679  0.92902  0.00513 -0.80973  0.002214  0.001530  0.001746
   1.98793  0.94016  0.00507 -0.80708  0.002257  0.001563  0.001735
   1.99859  0.95082  0.00483 -0.80543  0.002286  0.001588  0.001735
   2.00872  0.96094  0.00439 -0.80551  0.002293  0.001601  0.001754
   2.01827  0.97047  0.00376 -0.80876  0.002260  0.001592  0.001808
   2.02723  0.97940  0.00294 -0.81454  0.002198  0.001566  0.001891
   2.03557  0.98767  0.00197 -0.82302  0.002110  0.001524  0.002004
   2.04326  0.99529  0.00085 -0.83477  0.001995  0.001464  0.002155
   2.04805  1.00000  0.00000 -0.84941  0.001861  0.001389  0.002342
   2.04805  1.00010 -0.00002  0.84941  0.006483  0.003708  0.000000
   2.05283  1.00477 -0.00104  0.86768  0.005634  0.003427  0.000000
   2.05828  1.01012 -0.00206  0.87793  0.005212  0.003285  0.000000
   2.06449  1.01624 -0.00314  0.88712  0.004869  0.003165  0.000000
   2.07158  1.02323 -0.00428  0.89548  0.004579  0.003062  0.000000
   2.07966  1.03122 -0.00550  0.90325  0.004326  0.002972  0.000000
   2.08887  1.04034 -0.00681  0.91054  0.004101  0.002891  0.000000
   2.09938  1.05075 -0.00822  0.91741  0.003899  0.002818  0.000000
   2.11136  1.06263 -0.00974  0.92392  0.003716  0.002751  0.000000
   2.12502  1.07619 -0.01138  0.93009  0.003549  0.002691  0.000000
   2.14059  1.09167 -0.01314  0.93595  0.003397  0.002636  0.000000
   2.15835  1.10932 -0.01505  0.94152  0.003257  0.002585  0.000000
   2.17860  1.12947 -0.01710  0.94682  0.003129  0.002538  0.000000
   2.20169  1.15245 -0.01932  0.95184  0.003012  0.002496  0.000000
   2.22802  1.17867 -0.02171  0.95659  0.002906  0.002456  0.000000
   2.25804  1.20858 -0.02430  0.96107  0.002810  0.002420  0.000000
   2.29227  1.24270 -0.02709  0.96527  0.002725  0.002387  0.000000
   2.33131  1.28162 -0.03010  0.96919  0.002648  0.002357  0.000000
   2.37582  1.32601 -0.03334  0.97282  0.002581  0.002330  0.000000
   2.42657  1.37664 -0.03685  0.97617  0.002522  0.002305  0.000000
   2.48444  1.43439 -0.04063  0.97923  0.002471  0.002283  0.000000
   2.55043  1.50025 -0.04471  0.98201  0.002427  0.002263  0.000000
   2.62567  1.57536 -0.04912  0.98452  0.002389  0.002245  0.000000
   2.71147  1.66103 -0.05388  0.98675  0.002357  0.002230  0.000000
   2.80930  1.75872 -0.05902  0.98873  0.002329  0.002216  0.000000
   2.92085  1.87014 -0.06458  0.99047  0.002305  0.002204  0.000000
   3.04805  1.99719 -0.07060  0.99205  0.002285  0.002194  0.000000
