#    s        x        y     Ue/Vinf    Dstar     Theta      Cf
   0.00000  1.00000  0.00000  0.86296  0.004239  0.002474  0.001081
   0.00481  0.99528  0.00089  0.87403  0.003947  0.002357  0.001198
   0.01269  0.98760  0.00268  0.90175  0.003329  0.002098  0.001520
   0.02150  0.97904  0.00475  0.93215  0.002810  0.001856  0.001888
   0.03113  0.96965  0.00691  0.95789  0.002459  0.001677  0.002209
   0.04161  0.95939  0.00903  0.97192  0.002290  0.001583  0.002377
   0.05305  0.94815  0.01120  0.97915  0.002205  0.001528  0.002449
   0.06539  0.93603  0.01348  0.98549  0.002131  0.001479  0.002506
   0.07842  0.92322  0.01586  0.99142  0.002062  0.001432  0.002556
   0.09190  0.90997  0.01832  0.99747  0.001994  0.001385  0.002607
   0.10562  0.89648  0.02083  1.00371  0.001926  0.001338  0.002661
   0.11948  0.88286  0.02339  1.01016  0.001858  0.001291  0.002717
   0.13341  0.86917  0.02599  1.01666  0.001791  0.001244  0.002774
   0.14738  0.85544  0.02861  1.02356  0.001722  0.001197  0.002838
   0.16140  0.84168  0.03126  1.03061  0.001654  0.001150  0.002905
   0.17544  0.82789  0.03393  1.03789  0.001587  0.001103  0.002976
   0.18952  0.81408  0.03662  1.04549  0.001518  0.001057  0.003054
   0.20362  0.80024  0.03934  1.05319  0.001452  0.001011  0.003136
   0.21775  0.78637  0.04207  1.06122  0.001384  0.000965  0.003225
   0.23191  0.77248  0.04481  1.06947  0.001318  0.000920  0.003322
   0.24608  0.75858  0.04756  1.07790  0.001251  0.000875  0.003425
   0.26024  0.74469  0.05030  1.08655  0.001186  0.000830  0.003538
   0.27437  0.73083  0.05303  1.09541  0.001121  0.000786  0.003660
   0.28846  0.71700  0.05575  1.10444  0.001057  0.000743  0.003794
   0.30250  0.70322  0.05844  1.11352  0.000994  0.000701  0.003937
   0.31649  0.68949  0.06110  1.12290  0.000931  0.000659  0.004096
   0.33042  0.67581  0.06373  1.13223  0.000871  0.000618  0.004266
   0.34429  0.66218  0.06631  1.14172  0.000811  0.000578  0.004449
   0.35810  0.64861  0.06885  1.15126  0.000753  0.000538  0.004642
   0.37184  0.63510  0.07134  1.16066  0.000697  0.000499  0.004828
   0.38551  0.62164  0.07378  1.16995  0.000646  0.000462  0.004982
   0.39910  0.60826  0.07614  1.17867  0.000603  0.000426  0.005025
   0.41262  0.59494  0.07844  1.18665  0.000576  0.000393  0.004782
   0.42605  0.58169  0.08066  1.19356  0.000587  0.000364  0.003879
   0.43939  0.56853  0.08279  1.20277  0.000696  0.000341  0.001929
   0.45262  0.55545  0.08483  1.25541  0.001066  0.000273 -0.000014
   0.46575  0.54247  0.08677  1.26341  0.001128  0.000263 -0.000070
   0.47876  0.52959  0.08860  1.26769  0.001071  0.000258 -0.000056
   0.49164  0.51682  0.09031  1.27244  0.000958  0.000252  0.000007
   0.50434  0.50421  0.09189  1.27850  0.000839  0.000245  0.000129
   0.51692  0.49172  0.09331  1.28567  0.000747  0.000237  0.000272
   0.52942  0.47928  0.09457  1.29251  0.000685  0.000230  0.000394
   0.54190  0.46685  0.09568  1.29894  0.000636  0.000223  0.000512
   0.55433  0.45446  0.09665  1.30482  0.000595  0.000216  0.000628
   0.56673  0.44208  0.09747  1.30972  0.000562  0.000210  0.000734
   0.57912  0.42971  0.09814  1.31361  0.000535  0.000204  0.000832
   0.59150  0.41735  0.09866  1.31654  0.000511  0.000199  0.000922
   0.60388  0.40497  0.09903  1.31827  0.000493  0.000194  0.000998
   0.61629  0.39256  0.09924  1.31863  0.000479  0.000190  0.001049
   0.62876  0.38010  0.09931  1.31788  0.000469  0.000187  0.001076
   0.64129  0.36756  0.09924  1.31667  0.000461  0.000184  0.001094
   0.65388  0.35497  0.09903  1.31544  0.000453  0.000180  0.001114
   0.66651  0.34235  0.09870  1.31421  0.000444  0.000177  0.001138
   0.67916  0.32971  0.09825  1.31279  0.000436  0.000174  0.001160
   0.69183  0.31705  0.09766  1.31129  0.000427  0.000170  0.001183
   0.70450  0.30440  0.09695  1.30974  0.000418  0.000167  0.001209
   0.71717  0.29176  0.09612  1.30797  0.000409  0.000163  0.001231
   0.72983  0.27913  0.09517  1.30638  0.000399  0.000160  0.001266
   0.74247  0.26654  0.09409  1.30433  0.000391  0.000156  0.001290
   0.75509  0.25398  0.09288  1.30238  0.000381  0.000152  0.001324
   0.76766  0.24147  0.09155  1.30025  0.000371  0.000148  0.001357
   0.78020  0.22902  0.09010  1.29802  0.000361  0.000144  0.001396
   0.79268  0.21665  0.08851  1.29555  0.000351  0.000140  0.001434
   0.80509  0.20435  0.08680  1.29295  0.000340  0.000136  0.001476
   0.81742  0.19216  0.08496  1.29022  0.000329  0.000132  0.001525
   0.82965  0.18009  0.08299  1.28717  0.000318  0.000127  0.001574
   0.84177  0.16816  0.08089  1.28396  0.000307  0.000123  0.001632
   0.85374  0.15639  0.07866  1.28037  0.000296  0.000118  0.001690
   0.86553  0.14484  0.07630  1.27662  0.000284  0.000114  0.001761
   0.87711  0.13353  0.07382  1.27243  0.000272  0.000109  0.001837
   0.88843  0.12251  0.07123  1.26775  0.000260  0.000104  0.001912
   0.89942  0.11185  0.06853  1.26297  0.000247  0.000099  0.002013
   0.91003  0.10162  0.06575  1.25751  0.000234  0.000094  0.002122
   0.92017  0.09189  0.06290  1.25137  0.000221  0.000089  0.002232
   0.92978  0.08272  0.06002  1.24510  0.000207  0.000084  0.002425
   0.93882  0.07416  0.05711  1.23648  0.000195  0.000079  0.002578
   0.94724  0.06625  0.05420  1.22682  0.000182  0.000074  0.002766
   0.95504  0.05901  0.05134  1.21549  0.000170  0.000070  0.002990
   0.96220  0.05242  0.04852  1.20177  0.000158  0.000066  0.003233
   0.96877  0.04645  0.04576  1.18517  0.000149  0.000062  0.003419
   0.97478  0.04107  0.04309  1.16715  0.000141  0.000058  0.003548
   0.98026  0.03624  0.04051  1.14906  0.000131  0.000055  0.003816
   0.98525  0.03191  0.03803  1.12792  0.000122  0.000051  0.004090
   0.98982  0.02802  0.03562  1.10334  0.000114  0.000048  0.004353
   0.99401  0.02453  0.03330  1.07553  0.000108  0.000046  0.004444
   0.99787  0.02139  0.03106  1.04746  0.000102  0.000043  0.004663
   1.00142  0.01857  0.02890  1.01657  0.000096  0.000041  0.004828
   1.00472  0.01603  0.02681  0.98334  0.000090  0.000038  0.005031
   1.00777  0.01375  0.02477  0.94645  0.000084  0.000036  0.005224
   1.01063  0.01169  0.02279  0.90569  0.000079  0.000034  0.005317
   1.01330  0.00986  0.02085  0.86189  0.000074  0.000032  0.005438
   1.01581  0.00822  0.01895  0.81153  0.000068  0.000030  0.005750
   1.01818  0.00676  0.01708  0.75193  0.000066  0.000029  0.005524
   1.02042  0.00548  0.01524  0.68888  0.000062  0.000027  0.005508
   1.02255  0.00435  0.01343  0.61814  0.000059  0.000026  0.005163
   1.02458  0.00337  0.01166  0.54485  0.000057  0.000025  0.004715
   1.02651  0.00251  0.00993  0.46832  0.000054  0.000024  0.004295
   1.02836  0.00178  0.00823  0.38541  0.000051  0.000023  0.003741
   1.03014  0.00118  0.00656  0.29540  0.000049  0.000022  0.003030
   1.03184  0.00069  0.00493  0.20120  0.000047  0.000021  0.002125
   1.03347  0.00033  0.00333  0.09600  0.000042  0.000019  0.001146
   1.03505  0.00011  0.00177 -0.02097  0.000042  0.000019  0.000250
   1.03658  0.00001  0.00024 -0.14166  0.000040  0.000018  0.001778
   1.03809  0.00005 -0.00126 -0.27743  0.000038  0.000017  0.003757
   1.03960  0.00022 -0.00277 -0.43584  0.000035  0.000016  0.006324
   1.04115  0.00061 -0.00426 -0.61104  0.000034  0.000015  0.009069
   1.04273  0.00126 -0.00570 -0.77217  0.000036  0.000016  0.010438
   1.04435  0.00219 -0.00704 -0.88465  0.000042  0.000018  0.009772
   1.04604  0.00337 -0.00825 -0.92572  0.000056  0.000022  0.006536
   1.04782  0.00473 -0.00939 -0.95110  0.000063  0.000026  0.006412
   1.04967  0.00623 -0.01048 -0.98490  0.000067  0.000028  0.006616
   1.05163  0.00788 -0.01153 -1.01150  0.000074  0.000031  0.005879
   1.05370  0.00969 -0.01254 -1.02714  0.000084  0.000034  0.005021
   1.05590  0.01166 -0.01352 -1.03856  0.000092  0.000037  0.004556
   1.05825  0.01380 -0.01449 -1.04870  0.000100  0.000040  0.004248
   1.06078  0.01614 -0.01544 -1.05565  0.000109  0.000044  0.003815
   1.06350  0.01869 -0.01640 -1.06264  0.000117  0.000047  0.003609
   1.06645  0.02148 -0.01735 -1.06743  0.000126  0.000050  0.003279
   1.06967  0.02455 -0.01831 -1.07107  0.000136  0.000054  0.003015
   1.07320  0.02794 -0.01927 -1.07339  0.000147  0.000058  0.002754
   1.07709  0.03171 -0.02026 -1.07487  0.000158  0.000062  0.002531
   1.08141  0.03591 -0.02126 -1.07630  0.000168  0.000066  0.002366
   1.08623  0.04063 -0.02229 -1.07710  0.000180  0.000071  0.002189
   1.09165  0.04594 -0.02335 -1.07705  0.000194  0.000076  0.002007
   1.09776  0.05195 -0.02444 -1.07684  0.000208  0.000081  0.001864
   1.10465  0.05875 -0.02556 -1.07597  0.000223  0.000086  0.001714
   1.11242  0.06643 -0.02670 -1.07461  0.000240  0.000092  0.001576
   1.12112  0.07505 -0.02786 -1.07289  0.000257  0.000099  0.001454
   1.13074  0.08461 -0.02902 -1.07169  0.000273  0.000105  0.001375
   1.14123  0.09503 -0.03016 -1.07055  0.000290  0.000112  0.001295
   1.15246  0.10621 -0.03126 -1.06946  0.000307  0.000119  0.001221
   1.16430  0.11800 -0.03231 -1.06857  0.000324  0.000125  0.001159
   1.17662  0.13028 -0.03329 -1.06735  0.000343  0.000132  0.001089
   1.18931  0.14294 -0.03420 -1.06638  0.000359  0.000138  0.001039
   1.20227  0.15588 -0.03505 -1.06547  0.000376  0.000145  0.000993
   1.21545  0.16903 -0.03583 -1.06477  0.000391  0.000151  0.000956
   1.22878  0.18234 -0.03655 -1.06444  0.000405  0.000157  0.000930
   1.24222  0.19577 -0.03721 -1.06447  0.000418  0.000162  0.000912
   1.25574  0.20928 -0.03782 -1.06479  0.000429  0.000167  0.000896
   1.26932  0.22284 -0.03838 -1.06565  0.000439  0.000172  0.000891
   1.28291  0.23643 -0.03889 -1.06674  0.000448  0.000177  0.000885
   1.29652  0.25002 -0.03934 -1.06805  0.000457  0.000181  0.000878
   1.31012  0.26362 -0.03975 -1.06975  0.000465  0.000185  0.000878
   1.32370  0.27719 -0.04010 -1.07159  0.000472  0.000188  0.000876
   1.33725  0.29074 -0.04039 -1.07357  0.000479  0.000192  0.000873
   1.35075  0.30424 -0.04063 -1.07575  0.000486  0.000195  0.000873
   1.36420  0.31769 -0.04080 -1.07798  0.000492  0.000199  0.000870
   1.37759  0.33107 -0.04090 -1.08036  0.000498  0.000202  0.000870
   1.39089  0.34437 -0.04093 -1.08273  0.000504  0.000205  0.000867
   1.40410  0.35758 -0.04088 -1.08505  0.000510  0.000207  0.000863
   1.41719  0.37068 -0.04075 -1.08747  0.000516  0.000210  0.000860
   1.43015  0.38364 -0.04052 -1.08983  0.000521  0.000213  0.000856
   1.44296  0.39644 -0.04018 -1.09128  0.000531  0.000216  0.000833
   1.45567  0.40914 -0.03971 -1.09056  0.000553  0.000221  0.000766
   1.46835  0.42181 -0.03910 -1.08808  0.000583  0.000227  0.000676
   1.48104  0.43448 -0.03834 -1.08363  0.000625  0.000235  0.000560
   1.49381  0.44721 -0.03744 -1.07726  0.000688  0.000244  0.000417
   1.50674  0.46010 -0.03640 -1.06955  0.000780  0.000255  0.000254
   1.51990  0.47321 -0.03523 -1.06253  0.000896  0.000265  0.000112
   1.53329  0.48654 -0.03396 -1.05712  0.001014  0.000273  0.000022
   1.54686  0.50004 -0.03263 -1.05274  0.001104  0.000280 -0.000018
   1.56056  0.51367 -0.03123 -1.04880  0.001126  0.000286 -0.000017
   1.57439  0.52743 -0.02979 -1.02885  0.000959  0.000318  0.000243
   1.58834  0.54129 -0.02830 -1.00300  0.000709  0.000362  0.001609
   1.60237  0.55524 -0.02679 -0.99530  0.000625  0.000388  0.002791
   1.61647  0.56926 -0.02527 -0.98979  0.000619  0.000418  0.003360
   1.63059  0.58330 -0.02374 -0.98407  0.000647  0.000452  0.003535
   1.64470  0.59733 -0.02222 -0.97817  0.000689  0.000487  0.003530
   1.65879  0.61133 -0.02070 -0.97215  0.000737  0.000524  0.003452
   1.67283  0.62530 -0.01921 -0.96613  0.000789  0.000561  0.003349
   1.68683  0.63922 -0.01774 -0.96030  0.000842  0.000597  0.003243
   1.70079  0.65311 -0.01630 -0.95455  0.000896  0.000634  0.003140
   1.71471  0.66695 -0.01489 -0.94900  0.000950  0.000671  0.003045
   1.72859  0.68076 -0.01351 -0.94357  0.001003  0.000708  0.002956
   1.74243  0.69454 -0.01218 -0.93832  0.001057  0.000745  0.002876
   1.75623  0.70828 -0.01088 -0.93322  0.001110  0.000781  0.002802
   1.77000  0.72199 -0.00963 -0.92837  0.001163  0.000817  0.002737
   1.78372  0.73566 -0.00842 -0.92360  0.001215  0.000854  0.002675
   1.79741  0.74930 -0.00727 -0.91901  0.001267  0.000890  0.002619
   1.81107  0.76291 -0.00616 -0.91464  0.001319  0.000926  0.002568
   1.82468  0.77649 -0.00511 -0.91033  0.001370  0.000962  0.002520
   1.83826  0.79002 -0.00412 -0.90621  0.001421  0.000998  0.002476
   1.85179  0.80353 -0.00320 -0.90224  0.001471  0.001033  0.002435
   1.86528  0.81699 -0.00233 -0.89843  0.001521  0.001069  0.002397
   1.87872  0.83041 -0.00154 -0.89484  0.001570  0.001103  0.002363
   1.89211  0.84377 -0.00082 -0.89131  0.001619  0.001138  0.002330
   1.90543  0.85708 -0.00017 -0.88801  0.001666  0.001172  0.002300
   1.91869  0.87032  0.00040 -0.88481  0.001713  0.001206  0.002272
   1.93185  0.88348  0.00088 -0.88188  0.001759  0.001239  0.002247
   1.94490  0.89652  0.00127 -0.87910  0.001803  0.001272  0.002225
   1.95779  0.90941  0.00157 -0.87661  0.001845  0.001303  0.002205
   1.97048  0.92209  0.00177 -0.87425  0.001886  0.001333  0.002187
   1.98287  0.93449  0.00186 -0.87245  0.001922  0.001360  0.002176
   1.99486  0.94648  0.00185 -0.87100  0.001953  0.001385  0.002168
   2.00629  0.95791  0.00174 -0.87026  0.001978  0.001406  0.002169
   2.01700  0.96862  0.00155 -0.86910  0.002006  0.001427  0.002162
   2.02683  0.97844  0.00127 -0.86677  0.002045  0.001454  0.002139
   2.03568  0.98728  0.00091 -0.86357  0.002092  0.001486  0.002104
   2.04360  0.99519  0.00044 -0.85965  0.002147  0.001520  0.002059
   2.04843  1.00000  0.00000 -0.86296  0.002117  0.001507  0.002107
   2.04843  1.00010 -0.00001  0.86296  0.006356  0.003981  0.000000
   2.05325  1.00488 -0.00064  0.88289  0.005588  0.003670  0.000000
   2.05874  1.01033 -0.00129  0.89333  0.005224  0.003522  0.000000
   2.06500  1.01655 -0.00198  0.90218  0.004935  0.003404  0.000000
   2.07213  1.02364 -0.00273  0.90991  0.004695  0.003305  0.000000
   2.08026  1.03173 -0.00353  0.91687  0.004486  0.003221  0.000000
   2.08953  1.04096 -0.00440  0.92325  0.004300  0.003146  0.000000
   2.10009  1.05148 -0.00535  0.92917  0.004131  0.003079  0.000000
   2.11213  1.06347 -0.00637  0.93471  0.003977  0.003019  0.000000
   2.12585  1.07715 -0.00749  0.93992  0.003834  0.002964  0.000000
   2.14149  1.09274 -0.00869  0.94486  0.003701  0.002914  0.000000
   2.15932  1.11052 -0.01000  0.94954  0.003576  0.002867  0.000000
   2.17963  1.13079 -0.01142  0.95399  0.003460  0.002824  0.000000
   2.20279  1.15389 -0.01296  0.95821  0.003353  0.002784  0.000000
   2.22918  1.18023 -0.01463  0.96221  0.003253  0.002747  0.000000
   2.25926  1.21026 -0.01643  0.96599  0.003160  0.002713  0.000000
   2.29355  1.24449 -0.01837  0.96955  0.003076  0.002682  0.000000
   2.33263  1.28352 -0.02046  0.97288  0.002999  0.002653  0.000000
   2.37717  1.32800 -0.02271  0.97599  0.002930  0.002627  0.000000
   2.42794  1.37871 -0.02513  0.97887  0.002869  0.002603  0.000000
   2.48580  1.43652 -0.02773  0.98152  0.002814  0.002581  0.000000
   2.55176  1.50241 -0.03051  0.98394  0.002766  0.002562  0.000000
   2.62693  1.57752 -0.03348  0.98613  0.002725  0.002544  0.000000
   2.71260  1.66314 -0.03665  0.98810  0.002689  0.002529  0.000000
   2.81026  1.76073 -0.04004  0.98985  0.002657  0.002515  0.000000
   2.92156  1.87198 -0.04364  0.99139  0.002631  0.002503  0.000000
   3.04842  1.99878 -0.04748  0.99282  0.002607  0.002492  0.000000
