#    s        x        y     Ue/Vinf    Dstar     Theta      Cf
   0.00000  1.00000  0.00126  0.74857  0.000000  0.000000  0.000000
   0.00497  0.99521  0.00257  0.85590  0.000000  0.000000  0.000000
   0.01338  0.98708  0.00476  0.90121  0.000000  0.000000  0.000000
   0.02298  0.97781  0.00724  0.93505  0.000000  0.000000  0.000000
   0.03367  0.96748  0.00995  0.96355  0.000000  0.000000  0.000000
   0.04522  0.95629  0.01285  0.98713  0.000000  0.000000  0.000000
   0.05739  0.94449  0.01585  1.00964  0.000000  0.000000  0.000000
   0.06998  0.93229  0.01890  1.02871  0.000000  0.000000  0.000000
   0.08280  0.91983  0.02195  1.04704  0.000000  0.000000  0.000000
   0.09577  0.90722  0.02499  1.06365  0.000000  0.000000  0.000000
   0.10882  0.89452  0.02798  1.07890  0.000000  0.000000  0.000000
   0.12191  0.88177  0.03093  1.09376  0.000000  0.000000  0.000000
   0.13503  0.86897  0.03383  1.10713  0.000000  0.000000  0.000000
   0.14816  0.85615  0.03668  1.12063  0.000000  0.000000  0.000000
   0.16130  0.84331  0.03947  1.13278  0.000000  0.000000  0.000000
   0.17445  0.83045  0.04221  1.14508  0.000000  0.000000  0.000000
   0.18760  0.81758  0.04489  1.15661  0.000000  0.000000  0.000000
   0.20075  0.80469  0.04751  1.16784  0.000000  0.000000  0.000000
   0.21390  0.79180  0.05008  1.17895  0.000000  0.000000  0.000000
   0.22705  0.77889  0.05259  1.18938  0.000000  0.000000  0.000000
   0.24019  0.76597  0.05504  1.20009  0.000000  0.000000  0.000000
   0.25334  0.75305  0.05744  1.21014  0.000000  0.000000  0.000000
   0.26648  0.74012  0.05977  1.22028  0.000000  0.000000  0.000000
   0.27962  0.72718  0.06205  1.23016  0.000000  0.000000  0.000000
   0.29275  0.71423  0.06427  1.23992  0.000000  0.000000  0.000000
   0.30589  0.70128  0.06643  1.24979  0.000000  0.000000  0.000000
   0.31901  0.68832  0.06853  1.25904  0.000000  0.000000  0.000000
   0.33213  0.67536  0.07057  1.26875  0.000000  0.000000  0.000000
   0.34525  0.66239  0.07255  1.27804  0.000000  0.000000  0.000000
   0.35836  0.64942  0.07446  1.28758  0.000000  0.000000  0.000000
   0.37146  0.63645  0.07632  1.29670  0.000000  0.000000  0.000000
   0.38456  0.62348  0.07811  1.30621  0.000000  0.000000  0.000000
   0.39764  0.61051  0.07984  1.31548  0.000000  0.000000  0.000000
   0.41072  0.59754  0.08150  1.32480  0.000000  0.000000  0.000000
   0.42379  0.58457  0.08310  1.33414  0.000000  0.000000  0.000000
   0.43685  0.57160  0.08463  1.34363  0.000000  0.000000  0.000000
   0.44989  0.55863  0.08609  1.35299  0.000000  0.000000  0.000000
   0.46293  0.54567  0.08748  1.36252  0.000000  0.000000  0.000000
   0.47595  0.53272  0.08880  1.37209  0.000000  0.000000  0.000000
   0.48896  0.51977  0.09006  1.38184  0.000000  0.000000  0.000000
   0.50195  0.50683  0.09124  1.39160  0.000000  0.000000  0.000000
   0.51493  0.49390  0.09234  1.40170  0.000000  0.000000  0.000000
   0.52790  0.48098  0.09337  1.41175  0.000000  0.000000  0.000000
   0.54084  0.46807  0.09433  1.42214  0.000000  0.000000  0.000000
   0.55376  0.45518  0.09520  1.43277  0.000000  0.000000  0.000000
   0.56665  0.44231  0.09599  1.44381  0.000000  0.000000  0.000000
   0.57950  0.42948  0.09671  1.45537  0.000000  0.000000  0.000000
   0.59230  0.41669  0.09734  1.46715  0.000000  0.000000  0.000000
   0.60503  0.40398  0.09788  1.48144  0.000000  0.000000  0.000000
   0.61761  0.39141  0.09832  1.49701  0.000000  0.000000  0.000000
   0.63009  0.37893  0.09863  1.50987  0.000000  0.000000  0.000000
   0.64250  0.36653  0.09882  1.52156  0.000000  0.000000  0.000000
   0.65486  0.35417  0.09887  1.53280  0.000000  0.000000  0.000000
   0.66718  0.34184  0.09880  1.54348  0.000000  0.000000  0.000000
   0.67946  0.32956  0.09859  1.55389  0.000000  0.000000  0.000000
   0.69172  0.31731  0.09824  1.56400  0.000000  0.000000  0.000000
   0.70394  0.30510  0.09776  1.57371  0.000000  0.000000  0.000000
   0.71612  0.29293  0.09714  1.58338  0.000000  0.000000  0.000000
   0.72828  0.28080  0.09638  1.59278  0.000000  0.000000  0.000000
   0.74040  0.26871  0.09548  1.60203  0.000000  0.000000  0.000000
   0.75247  0.25668  0.09443  1.61118  0.000000  0.000000  0.000000
   0.76451  0.24470  0.09324  1.62023  0.000000  0.000000  0.000000
   0.77650  0.23279  0.09190  1.62910  0.000000  0.000000  0.000000
   0.78845  0.22093  0.09041  1.63798  0.000000  0.000000  0.000000
   0.80034  0.20916  0.08877  1.64688  0.000000  0.000000  0.000000
   0.81217  0.19746  0.08697  1.65569  0.000000  0.000000  0.000000
   0.82394  0.18586  0.08502  1.66462  0.000000  0.000000  0.000000
   0.83563  0.17436  0.08291  1.67367  0.000000  0.000000  0.000000
   0.84724  0.16297  0.08064  1.68293  0.000000  0.000000  0.000000
   0.85875  0.15172  0.07821  1.69226  0.000000  0.000000  0.000000
   0.87014  0.14063  0.07563  1.70214  0.000000  0.000000  0.000000
   0.88139  0.12972  0.07290  1.71217  0.000000  0.000000  0.000000
   0.89246  0.11903  0.07001  1.72301  0.000000  0.000000  0.000000
   0.90331  0.10861  0.06699  1.73432  0.000000  0.000000  0.000000
   0.91389  0.09850  0.06385  1.74648  0.000000  0.000000  0.000000
   0.92413  0.08879  0.06061  1.75938  0.000000  0.000000  0.000000
   0.93395  0.07954  0.05730  1.77349  0.000000  0.000000  0.000000
   0.94327  0.07084  0.05397  1.78841  0.000000  0.000000  0.000000
   0.95201  0.06275  0.05066  1.80459  0.000000  0.000000  0.000000
   0.96011  0.05534  0.04741  1.82166  0.000000  0.000000  0.000000
   0.96752  0.04862  0.04426  1.83975  0.000000  0.000000  0.000000
   0.97426  0.04260  0.04124  1.85881  0.000000  0.000000  0.000000
   0.98035  0.03723  0.03837  1.87821  0.000000  0.000000  0.000000
   0.98584  0.03246  0.03565  1.89880  0.000000  0.000000  0.000000
   0.99078  0.02824  0.03308  1.91929  0.000000  0.000000  0.000000
   0.99525  0.02449  0.03065  1.94045  0.000000  0.000000  0.000000
   0.99929  0.02117  0.02835  1.96181  0.000000  0.000000  0.000000
   1.00297  0.01822  0.02616  1.98315  0.000000  0.000000  0.000000
   1.00633  0.01559  0.02407  2.00459  0.000000  0.000000  0.000000
   1.00941  0.01324  0.02206  2.02577  0.000000  0.000000  0.000000
   1.01226  0.01114  0.02014  2.04628  0.000000  0.000000  0.000000
   1.01490  0.00928  0.01827  2.06611  0.000000  0.000000  0.000000
   1.01735  0.00761  0.01646  2.08417  0.000000  0.000000  0.000000
   1.01965  0.00614  0.01470  2.10026  0.000000  0.000000  0.000000
   1.02181  0.00484  0.01298  2.11232  0.000000  0.000000  0.000000
   1.02385  0.00370  0.01129  2.12099  0.000000  0.000000  0.000000
   1.02577  0.00272  0.00963  2.12213  0.000000  0.000000  0.000000
   1.02760  0.00190  0.00800  2.11528  0.000000  0.000000  0.000000
   1.02934  0.00123  0.00639  2.09791  0.000000  0.000000  0.000000
   1.03101  0.00070  0.00481  2.06653  0.000000  0.000000  0.000000
   1.03261  0.00032  0.00325  2.02000  0.000000  0.000000  0.000000
   1.03415  0.00009  0.00173  1.95703  0.000000  0.000000  0.000000
   1.03562  0.00000  0.00026  1.87835  0.000000  0.000000  0.000000
   1.03708  0.00005 -0.00119  1.78508  0.000000  0.000000  0.000000
   1.03857  0.00024 -0.00267  1.67229  0.000000  0.000000  0.000000
   1.04011  0.00059 -0.00417  1.53617  0.000000  0.000000  0.000000
   1.04169  0.00112 -0.00566  1.38203  0.000000  0.000000  0.000000
   1.04333  0.00184 -0.00713  1.21499  0.000000  0.000000  0.000000
   1.04502  0.00274 -0.00857  1.04269  0.000000  0.000000  0.000000
   1.04678  0.00382 -0.00996  0.87418  0.000000  0.000000  0.000000
   1.04862  0.00508 -0.01130  0.71383  0.000000  0.000000  0.000000
   1.05055  0.00651 -0.01258  0.56612  0.000000  0.000000  0.000000
   1.05258  0.00812 -0.01382  0.43065  0.000000  0.000000  0.000000
   1.05473  0.00991 -0.01501  0.30959  0.000000  0.000000  0.000000
   1.05701  0.01189 -0.01615  0.20049  0.000000  0.000000  0.000000
   1.05944  0.01406 -0.01726  0.10270  0.000000  0.000000  0.000000
   1.06206  0.01644 -0.01832  0.01497  0.000000  0.000000  0.000000
   1.06487  0.01906 -0.01936 -0.06402  0.000000  0.000000  0.000000
   1.06793  0.02195 -0.02036 -0.13548  0.000000  0.000000  0.000000
   1.07126  0.02513 -0.02134 -0.20036  0.000000  0.000000  0.000000
   1.07491  0.02866 -0.02229 -0.25966  0.000000  0.000000  0.000000
   1.07894  0.03258 -0.02322 -0.31351  0.000000  0.000000  0.000000
   1.08341  0.03696 -0.02412 -0.36360  0.000000  0.000000  0.000000
   1.08840  0.04187 -0.02499 -0.40941  0.000000  0.000000  0.000000
   1.09400  0.04741 -0.02583 -0.45172  0.000000  0.000000  0.000000
   1.10028  0.05364 -0.02661 -0.49039  0.000000  0.000000  0.000000
   1.10733  0.06065 -0.02734 -0.52618  0.000000  0.000000  0.000000
   1.11521  0.06850 -0.02798 -0.55835  0.000000  0.000000  0.000000
   1.12394  0.07721 -0.02853 -0.58753  0.000000  0.000000  0.000000
   1.13350  0.08676 -0.02896 -0.61330  0.000000  0.000000  0.000000
   1.14382  0.09708 -0.02927 -0.63593  0.000000  0.000000  0.000000
   1.15480  0.10806 -0.02944 -0.65569  0.000000  0.000000  0.000000
   1.16633  0.11959 -0.02948 -0.67259  0.000000  0.000000  0.000000
   1.17830  0.13156 -0.02940 -0.68708  0.000000  0.000000  0.000000
   1.19062  0.14388 -0.02921 -0.69959  0.000000  0.000000  0.000000
   1.20321  0.15647 -0.02892 -0.71026  0.000000  0.000000  0.000000
   1.21603  0.16928 -0.02854 -0.71952  0.000000  0.000000  0.000000
   1.22902  0.18226 -0.02808 -0.72741  0.000000  0.000000  0.000000
   1.24216  0.19540 -0.02757 -0.73435  0.000000  0.000000  0.000000
   1.25543  0.20865 -0.02700 -0.74043  0.000000  0.000000  0.000000
   1.26880  0.22201 -0.02639 -0.74581  0.000000  0.000000  0.000000
   1.28226  0.23545 -0.02575 -0.75061  0.000000  0.000000  0.000000
   1.29580  0.24897 -0.02509 -0.75474  0.000000  0.000000  0.000000
   1.30939  0.26255 -0.02441 -0.75877  0.000000  0.000000  0.000000
   1.32303  0.27617 -0.02372 -0.76226  0.000000  0.000000  0.000000
   1.33668  0.28980 -0.02303 -0.76563  0.000000  0.000000  0.000000
   1.35031  0.30342 -0.02235 -0.76875  0.000000  0.000000  0.000000
   1.36392  0.31701 -0.02167 -0.77175  0.000000  0.000000  0.000000
   1.37749  0.33057 -0.02102 -0.77469  0.000000  0.000000  0.000000
   1.39104  0.34410 -0.02038 -0.77765  0.000000  0.000000  0.000000
   1.40455  0.35760 -0.01977 -0.78063  0.000000  0.000000  0.000000
   1.41805  0.37108 -0.01918 -0.78383  0.000000  0.000000  0.000000
   1.43153  0.38455 -0.01863 -0.78731  0.000000  0.000000  0.000000
   1.44502  0.39803 -0.01810 -0.79196  0.000000  0.000000  0.000000
   1.45855  0.41155 -0.01759 -0.79745  0.000000  0.000000  0.000000
   1.47213  0.42512 -0.01707 -0.80074  0.000000  0.000000  0.000000
   1.48575  0.43873 -0.01653 -0.80387  0.000000  0.000000  0.000000
   1.49941  0.45238 -0.01599 -0.80667  0.000000  0.000000  0.000000
   1.51308  0.46604 -0.01544 -0.80898  0.000000  0.000000  0.000000
   1.52678  0.47973 -0.01488 -0.81114  0.000000  0.000000  0.000000
   1.54049  0.49342 -0.01432 -0.81337  0.000000  0.000000  0.000000
   1.55420  0.50712 -0.01376 -0.81520  0.000000  0.000000  0.000000
   1.56791  0.52082 -0.01320 -0.81694  0.000000  0.000000  0.000000
   1.58161  0.53451 -0.01265 -0.81859  0.000000  0.000000  0.000000
   1.59529  0.54818 -0.01210 -0.82023  0.000000  0.000000  0.000000
   1.60897  0.56185 -0.01155 -0.82188  0.000000  0.000000  0.000000
   1.62263  0.57550 -0.01102 -0.82326  0.000000  0.000000  0.000000
   1.63629  0.58914 -0.01049 -0.82474  0.000000  0.000000  0.000000
   1.64993  0.60278 -0.00997 -0.82607  0.000000  0.000000  0.000000
   1.66356  0.61640 -0.00947 -0.82755  0.000000  0.000000  0.000000
   1.67719  0.63002 -0.00897 -0.82874  0.000000  0.000000  0.000000
   1.69081  0.64363 -0.00849 -0.83019  0.000000  0.000000  0.000000
   1.70442  0.65723 -0.00802 -0.83153  0.000000  0.000000  0.000000
   1.71802  0.67083 -0.00757 -0.83272  0.000000  0.000000  0.000000
   1.73162  0.68442 -0.00713 -0.83406  0.000000  0.000000  0.000000
   1.74522  0.69801 -0.00670 -0.83540  0.000000  0.000000  0.000000
   1.75881  0.71159 -0.00629 -0.83664  0.000000  0.000000  0.000000
   1.77239  0.72518 -0.00589 -0.83792  0.000000  0.000000  0.000000
   1.78598  0.73875 -0.00552 -0.83928  0.000000  0.000000  0.000000
   1.79956  0.75233 -0.00515 -0.84036  0.000000  0.000000  0.000000
   1.81314  0.76591 -0.00481 -0.84188  0.000000  0.000000  0.000000
   1.82672  0.77948 -0.00448 -0.84303  0.000000  0.000000  0.000000
   1.84030  0.79306 -0.00416 -0.84420  0.000000  0.000000  0.000000
   1.85388  0.80663 -0.00387 -0.84562  0.000000  0.000000  0.000000
   1.86746  0.82021 -0.00359 -0.84659  0.000000  0.000000  0.000000
   1.88104  0.83378 -0.00332 -0.84792  0.000000  0.000000  0.000000
   1.89461  0.84736 -0.00307 -0.84888  0.000000  0.000000  0.000000
   1.90819  0.86093 -0.00284 -0.84980  0.000000  0.000000  0.000000
   1.92175  0.87449 -0.00262 -0.85106  0.000000  0.000000  0.000000
   1.93529  0.88804 -0.00242 -0.85147  0.000000  0.000000  0.000000
   1.94880  0.90154 -0.00223 -0.85207  0.000000  0.000000  0.000000
   1.96223  0.91497 -0.00206 -0.85208  0.000000  0.000000  0.000000
   1.97551  0.92825 -0.00191 -0.85210  0.000000  0.000000  0.000000
   1.98855  0.94129 -0.00176 -0.85124  0.000000  0.000000  0.000000
   2.00115  0.95388 -0.00164 -0.84897  0.000000  0.000000  0.000000
   2.01306  0.96580 -0.00153 -0.84611  0.000000  0.000000  0.000000
   2.02402  0.97676 -0.00144 -0.84022  0.000000  0.000000  0.000000
   2.03379  0.98653 -0.00136 -0.83117  0.000000  0.000000  0.000000
   2.04229  0.99502 -0.00130 -0.81181  0.000000  0.000000  0.000000
   2.04726  1.00000 -0.00126 -0.74857  0.000000  0.000000  0.000000
